# energy grid [eV]     epsi_x  epsi_y  epsi_z
#
    0.000000000    0.000000000    0.000000000    0.000000000
    0.060120240    0.019989213    0.019989234    0.019989221
    0.120240481    0.040066852    0.040066894    0.040066868
    0.180360721    0.060322426    0.060322490    0.060322451
    0.240480962    0.080847639    0.080847725    0.080847672
    0.300601202    0.101737552    0.101737661    0.101737594
    0.360721443    0.123091835    0.123091968    0.123091887
    0.420841683    0.145016132    0.145016288    0.145016193
    0.480961924    0.167623582    0.167623764    0.167623654
    0.541082164    0.191036552    0.191036761    0.191036635
    0.601202405    0.215388614    0.215388851    0.215388710
    0.661322645    0.240826859    0.240827126    0.240826969
    0.721442886    0.267514614    0.267514914    0.267514739
    0.781563126    0.295634678    0.295635012    0.295634819
    0.841683367    0.325393208    0.325393580    0.325393368
    0.901803607    0.357024433    0.357024845    0.357024614
    0.961923848    0.390796414    0.390796870    0.390796618
    1.022044088    0.427018156    0.427018662    0.427018387
    1.082164329    0.466048463    0.466049023    0.466048724
    1.142284569    0.508307056    0.508307676    0.508307352
    1.202404810    0.554288680    0.554289368    0.554289016
    1.262525050    0.604581175    0.604581938    0.604581557
    1.322645291    0.659888869    0.659889719    0.659889305
    1.382765531    0.721063222    0.721064169    0.721063721
    1.442885772    0.789143445    0.789144505    0.789144018
    1.503006012    0.865411084    0.865412274    0.865411746
    1.563126253    0.951464439    0.951465781    0.951465206
    1.623246493    1.049321659    1.049323179    1.049322555
    1.683366733    1.161566127    1.161567858    1.161567178
    1.743486974    1.291555526    1.291557511    1.291556770
    1.803607214    1.443729188    1.443731481    1.443730672
    1.863727455    1.624071203    1.624073875    1.624072991
    1.923847695    1.840828127    1.840831269    1.840830304
    1.983967936    2.105657541    2.105661282    2.105660228
    2.044088176    2.435535650    2.435540164    2.435539017
    2.104208417    2.856065682    2.856071218    2.856069981
    2.164328657    3.407515428    3.407522350    3.407521041
    2.224448898    4.156516048    4.156524913    4.156523586
    2.284569138    5.220357897    5.220369591    5.220368386
    2.344689379    6.821261242    6.821277255    6.821276525
    2.404809619    9.412684353    9.412707375    9.412707995
    2.464929860   13.917928271   13.917963574   13.917967443
    2.525050100   21.388901966   21.388960947   21.388968592
    2.585170341   30.640386433   30.640491963   30.640494079
    2.645290581   45.003007200   45.003181577   45.003175756
    2.705410822   62.130595352   62.130768300   62.130754059
    2.765531062   60.533384379   60.533518713   60.533428474
    2.825651303   46.664420102   46.664593225   46.664383361
    2.885771543   35.196633652   35.196666202   35.196601604
    2.945891784   25.560426099   25.560385235   25.560425645
    3.006012024   21.877344159   21.877317103   21.877371350
    3.066132265   23.217464358   23.217439858   23.217502579
    3.126252505   22.933790926   22.933763745   22.933780288
    3.186372745   19.940361004   19.940342179   19.940338915
    3.246492986   19.795149859   19.795129326   19.795129705
    3.306613226   21.662532652   21.662506961   21.662503446
    3.366733467   26.289791884   26.289790351   26.289769598
    3.426853707   37.457349515   37.457382157   37.457335592
    3.486973948   59.625532083   59.625613794   59.625509943
    3.547094188   90.863190862   90.863310999   90.863121658
    3.607214429  111.325907749  111.325944749  111.325834539
    3.667334669  116.062069171  116.062078726  116.061971527
    3.727454910  103.180219078  103.180103463  103.179971772
    3.787575150   77.603569855   77.603357168   77.603292189
    3.847695391   49.578301977   49.578121875   49.578104643
    3.907815631   31.627985963   31.627888592   31.627894217
    3.967935872   21.993989822   21.993942201   21.993949789
    4.028056112   17.015437143   17.015420615   17.015421611
    4.088176353   14.938947967   14.938952350   14.938949152
    4.148296593   13.022713105   13.022721463   13.022716023
    4.208416834   11.222182983   11.222191965   11.222186882
    4.268537074   11.231323248   11.231338401   11.231334143
    4.328657315   13.202614812   13.202632137   13.202629424
    4.388777555   15.373738380   15.373742903   15.373739800
    4.448897796   18.381121862   18.381149978   18.381135671
    4.509018036   20.966443743   20.966498857   20.966467072
    4.569138277   16.377457092   16.377498251   16.377467781
    4.629258517   10.883842137   10.883858318   10.883844358
    4.689378758    7.832453400    7.832457363    7.832455423
    4.749498998    6.086662917    6.086659245    6.086661532
    4.809619238    4.969660004    4.969654564    4.969657244
    4.869739479    4.142520142    4.142515821    4.142518917
    4.929859719    3.775071156    3.775065787    3.775070981
    4.989979960    3.904594902    3.904585790    3.904595728
    5.050100200    4.649804949    4.649787693    4.649806646
    5.110220441    5.521969271    5.521941691    5.521968256
    5.170340681    5.024157291    5.024133766    5.024154953
    5.230460922    4.355606526    4.355594898    4.355609533
    5.290581162    4.349208811    4.349213217    4.349222083
    5.350701403    5.261567510    5.261593289    5.261597159
    5.410821643    7.024400337    7.024438023    7.024435962
    5.470941884    8.273661739    8.273678595    8.273675845
    5.531062124    8.032511173    8.032509156    8.032515047
    5.591182365    6.153681846    6.153674017    6.153682203
    5.651302605    5.023150475    5.023139855    5.023148220
    5.711422846    5.146360332    5.146342942    5.146354874
    5.771543086    5.816421587    5.816396541    5.816413538
    5.831663327    5.983478881    5.983449832    5.983464161
    5.891783567    6.915586801    6.915545737    6.915555867
    5.951903808    9.173455153    9.173395618    9.173405891
    6.012024048   10.536561078   10.536508674   10.536511285
    6.072144289    9.961987080    9.961973160    9.961957811
    6.132264529    8.882907257    8.882917764    8.882889891
    6.192384770    9.400664526    9.400685907    9.400642150
    6.252505010   12.258931977   12.258972782   12.258898313
    6.312625251   15.800857999   15.800904009   15.800801690
    6.372745491   16.591618521   16.591659653   16.591548998
    6.432865731   14.676794161   14.676840560   14.676712239
    6.492985972   12.595823323   12.595869004   12.595748273
    6.553106212    9.439369698    9.439411170    9.439348145
    6.613226453    7.227821180    7.227887454    7.227882419
    6.673346693    6.416882159    6.416963875    6.417012856
    6.733466934    5.905109427    5.905176197    5.905220270
    6.793587174    6.196154085    6.196215917    6.196226228
    6.853707415    6.160789917    6.160843108    6.160836983
    6.913827655    5.091538908    5.091573472    5.091570117
    6.973947896    4.465431692    4.465455640    4.465459178
    7.034068136    4.767392213    4.767411724    4.767424327
    7.094188377    5.276215378    5.276234795    5.276260060
    7.154308617    5.246928082    5.246940047    5.246976691
    7.214428858    5.257584635    5.257588241    5.257632127
    7.274549098    5.558371568    5.558369647    5.558406793
    7.334669339    5.267467543    5.267467317    5.267488251
    7.394789579    4.703283874    4.703286370    4.703301595
    7.454909820    4.176704490    4.176702382    4.176717571
    7.515030060    4.202598609    4.202583614    4.202603464
    7.575150301    3.757986318    3.757966608    3.757984347
    7.635270541    2.829835906    2.829820918    2.829826061
    7.695390782    2.414073528    2.414060259    2.414054722
    7.755511022    2.139526988    2.139513504    2.139516806
    7.815631263    1.711305520    1.711297911    1.711310884
    7.875751503    1.474033223    1.474039127    1.474050304
    7.935871743    1.544158153    1.544180726    1.544192160
    7.995991984    1.748188991    1.748219294    1.748226676
    8.056112224    1.526885606    1.526899839    1.526898983
    8.116232465    1.172428718    1.172432849    1.172433477
    8.176352705    0.973221200    0.973220054    0.973222627
    8.236472946    0.897817375    0.897811034    0.897814958
    8.296593186    0.947396765    0.947382984    0.947389205
    8.356713427    1.155633222    1.155606349    1.155617072
    8.416833667    1.521903253    1.521858160    1.521873196
    8.476953908    1.812027892    1.811978028    1.811984360
    8.537074148    2.156107315    2.156062171    2.156059775
    8.597194389    2.336980673    2.336953960    2.336952468
    8.657314629    1.897776206    1.897768601    1.897767150
    8.717434870    1.480773070    1.480773276    1.480773223
    8.777555110    1.409262145    1.409267711    1.409267724
    8.837675351    1.454197581    1.454206382    1.454214221
    8.897795591    1.476803201    1.476816088    1.476846548
    8.957915832    1.479231310    1.479251289    1.479311580
    9.018036072    1.329408187    1.329424713    1.329483338
    9.078156313    1.267272976    1.267276867    1.267313468
    9.138276553    1.394847227    1.394840735    1.394862916
    9.198396794    1.397478604    1.397464433    1.397475050
    9.258517034    1.311969447    1.311953257    1.311958363
    9.318637275    1.202130991    1.202117222    1.202118554
    9.378757515    1.176950890    1.176939326    1.176935951
    9.438877756    1.381006129    1.380990546    1.380983128
    9.498997996    1.411293525    1.411265582    1.411267598
    9.559118236    1.118249270    1.118221949    1.118231283
    9.619238477    0.977591984    0.977566404    0.977577755
    9.679358717    1.003476917    1.003443452    1.003459063
    9.739478958    1.194607476    1.194561889    1.194583539
    9.799599198    1.373280099    1.373250384    1.373274322
    9.859719439    1.340102471    1.340099759    1.340121470
    9.919839679    1.215785308    1.215789369    1.215804969
    9.979959920    1.120433268    1.120435955    1.120448401
   10.040080160    0.981952723    0.981952803    0.981967077
   10.100200401    0.916585057    0.916582300    0.916602225
   10.160320641    0.956104964    0.956098602    0.956128886
   10.220440882    1.029221492    1.029211920    1.029252140
   10.280561122    1.109181775    1.109173197    1.109208812
   10.340681363    1.274322126    1.274320254    1.274344435
   10.400801603    1.296603110    1.296599482    1.296621928
   10.460921844    1.197918529    1.197905073    1.197932324
   10.521042084    1.088882139    1.088865092    1.088886516
   10.581162325    0.905044021    0.905028396    0.905041785
   10.641282565    0.779020807    0.779004751    0.779017716
   10.701402806    0.730999772    0.730978441    0.730996929
   10.761523046    0.778350027    0.778324914    0.778348029
   10.821643287    0.859443014    0.859422337    0.859438237
   10.881763527    0.831984734    0.831977267    0.831975708
   10.941883768    0.821292031    0.821295946    0.821279097
   11.002004008    0.921000353    0.920997985    0.920989467
   11.062124248    0.988192666    0.988171986    0.988184123
   11.122244489    0.788290446    0.788267932    0.788283251
   11.182364729    0.609314599    0.609294120    0.609311096
   11.242484970    0.538707386    0.538689502    0.538708069
   11.302605210    0.483033779    0.483022109    0.483035135
   11.362725451    0.500424901    0.500415501    0.500423708
   11.422845691    0.594729853    0.594721185    0.594727089
   11.482965932    0.642412941    0.642407125    0.642412013
   11.543086172    0.602242442    0.602238824    0.602243090
   11.603206413    0.467318537    0.467317877    0.467318603
   11.663326653    0.395787215    0.395789970    0.395785802
   11.723446894    0.402622563    0.402627371    0.402616293
   11.783567134    0.396623290    0.396628101    0.396612676
   11.843687375    0.338810206    0.338814469    0.338803029
   11.903807615    0.315843590    0.315847195    0.315839421
   11.963927856    0.322691565    0.322695581    0.322688592
   12.024048096    0.339070495    0.339076225    0.339067627
   12.084168337    0.405084655    0.405094619    0.405082574
   12.144288577    0.535684325    0.535700909    0.535683978
   12.204408818    0.659647359    0.659672825    0.659648701
   12.264529058    0.681043873    0.681079890    0.681048100
   12.324649299    0.658853594    0.658896648    0.658861363
   12.384769539    0.632462004    0.632504539    0.632478116
   12.444889780    0.691761029    0.691810382    0.691792870
   12.505010020    0.726670287    0.726721491    0.726710536
   12.565130261    0.624282240    0.624314152    0.624312548
   12.625250501    0.481461176    0.481480866    0.481481991
   12.685370741    0.382861712    0.382874534    0.382874898
   12.745490982    0.355255494    0.355263902    0.355263393
   12.805611222    0.405262368    0.405268179    0.405267231
   12.865731463    0.483522375    0.483526412    0.483525572
   12.925851703    0.517555921    0.517558487    0.517558828
   12.985971944    0.527169349    0.527173230    0.527174545
   13.046092184    0.496952269    0.496958094    0.496959134
   13.106212425    0.514203566    0.514210470    0.514210022
   13.166332665    0.614536483    0.614545695    0.614543519
   13.226452906    0.695803214    0.695815002    0.695810367
   13.286573146    0.760506511    0.760526415    0.760516011
   13.346693387    0.787176359    0.787210719    0.787185409
   13.406813627    0.796342060    0.796377026    0.796348912
   13.466933868    0.751512684    0.751526875    0.751517357
   13.527054108    0.656821741    0.656823313    0.656819603
   13.587174349    0.503227269    0.503224615    0.503224550
   13.647294589    0.364653903    0.364654483    0.364653782
   13.707414830    0.302472026    0.302477555    0.302475764
   13.767535070    0.296022690    0.296034288    0.296033301
   13.827655311    0.323848241    0.323860996    0.323860011
   13.887775551    0.358399121    0.358408704    0.358404358
   13.947895792    0.380959511    0.380966551    0.380959441
   14.008016032    0.392764201    0.392769679    0.392764025
   14.068136273    0.383890003    0.383896191    0.383891826
   14.128256513    0.359404606    0.359412097    0.359407324
   14.188376754    0.329695477    0.329700623    0.329695982
   14.248496994    0.327726440    0.327726376    0.327722849
   14.308617234    0.386171449    0.386166234    0.386164174
   14.368737475    0.475737435    0.475727754    0.475727351
   14.428857715    0.476668205    0.476657174    0.476659314
   14.488977956    0.437139374    0.437125858    0.437134430
   14.549098196    0.449802511    0.449790222    0.449804120
   14.609218437    0.446805165    0.446798932    0.446814309
   14.669338677    0.388249164    0.388244891    0.388256736
   14.729458918    0.331373850    0.331373193    0.331379502
   14.789579158    0.316875812    0.316879575    0.316882789
   14.849699399    0.283946795    0.283952227    0.283954783
   14.909819639    0.217935208    0.217939831    0.217941034
   14.969939880    0.181652782    0.181657918    0.181656946
   15.030060120    0.180737412    0.180744223    0.180740910
   15.090180361    0.194764055    0.194771437    0.194765973
   15.150300601    0.196951803    0.196957563    0.196952209
   15.210420842    0.200830056    0.200833850    0.200831779
   15.270541082    0.237942330    0.237945130    0.237946530
   15.330661323    0.299641248    0.299645097    0.299646739
   15.390781563    0.334574024    0.334579761    0.334583591
   15.450901804    0.296863046    0.296871690    0.296880765
   15.511022044    0.250387722    0.250396953    0.250406378
   15.571142285    0.215053444    0.215059526    0.215063650
   15.631262525    0.221680086    0.221684768    0.221682816
   15.691382766    0.230917552    0.230922199    0.230915636
   15.751503006    0.213361730    0.213363921    0.213357303
   15.811623246    0.193494568    0.193494728    0.193490741
   15.871743487    0.185908688    0.185907833    0.185906402
   15.931863727    0.171137320    0.171136817    0.171137626
   15.991983968    0.137176511    0.137175720    0.137177329
   16.052104208    0.115425720    0.115425129    0.115426102
   16.112224449    0.111229214    0.111229201    0.111229332
   16.172344689    0.111856481    0.111856185    0.111855256
   16.232464930    0.114647073    0.114646004    0.114643634
   16.292585170    0.116358563    0.116356462    0.116351838
   16.352705411    0.120479171    0.120475416    0.120466514
   16.412825651    0.147616735    0.147609662    0.147594700
   16.472945892    0.189792171    0.189779182    0.189766448
   16.533066132    0.202501061    0.202485253    0.202480758
   16.593186373    0.178795084    0.178782539    0.178781793
   16.653306613    0.149978239    0.149969496    0.149970688
   16.713426854    0.123531754    0.123525438    0.123527686
   16.773547094    0.102407948    0.102404632    0.102406408
   16.833667335    0.098221535    0.098221004    0.098222408
   16.893787575    0.113226116    0.113229230    0.113231184
   16.953907816    0.154377012    0.154386160    0.154389768
   17.014028056    0.216051513    0.216071914    0.216076973
   17.074148297    0.229423987    0.229454604    0.229459141
   17.134268537    0.191098099    0.191121310    0.191126324
   17.194388778    0.155209273    0.155222689    0.155227590
   17.254509018    0.130640151    0.130648118    0.130653282
   17.314629259    0.123120693    0.123125700    0.123132037
   17.374749499    0.116223567    0.116226639    0.116232473
   17.434869739    0.111811133    0.111813014    0.111817222
   17.494989980    0.109984534    0.109985914    0.109989189
   17.555110220    0.097598179    0.097599070    0.097602851
   17.615230461    0.097695765    0.097696126    0.097701758
   17.675350701    0.114505482    0.114506110    0.114513724
   17.735470942    0.128075854    0.128076570    0.128083923
   17.795591182    0.139587077    0.139586074    0.139592259
   17.855711423    0.127927368    0.127926220    0.127930076
   17.915831663    0.098658831    0.098659129    0.098660871
   17.975951904    0.082730305    0.082730215    0.082732634
   18.036072144    0.083766715    0.083765111    0.083769393
   18.096192385    0.095379746    0.095375924    0.095381249
   18.156312625    0.100717619    0.100712086    0.100717856
   18.216432866    0.093298924    0.093293344    0.093298907
   18.276553106    0.097321738    0.097315808    0.097321385
   18.336673347    0.121042044    0.121034339    0.121041531
   18.396793587    0.146617113    0.146607642    0.146615612
   18.456913828    0.146867623    0.146858397    0.146862921
   18.517034068    0.145257396    0.145249195    0.145250427
   18.577154309    0.155735636    0.155732931    0.155732576
   18.637274549    0.169424990    0.169427637    0.169425983
   18.697394790    0.167135834    0.167144013    0.167142051
   18.757515030    0.137566982    0.137576110    0.137575026
   18.817635271    0.107586688    0.107593446    0.107593336
   18.877755511    0.087174455    0.087179553    0.087179884
   18.937875752    0.082677102    0.082682147    0.082682442
   18.997995992    0.095014889    0.095022648    0.095021999
   19.058116232    0.110528314    0.110541200    0.110537753
   19.118236473    0.116009319    0.116024516    0.116019969
   19.178356713    0.120695883    0.120708314    0.120706732
   19.238476954    0.111263292    0.111270209    0.111273547
   19.298597194    0.107682785    0.107686218    0.107692662
   19.358717435    0.118233933    0.118239372    0.118243748
   19.418837675    0.122990955    0.122995594    0.122998061
   19.478957916    0.115816660    0.115816341    0.115820501
   19.539078156    0.094785736    0.094781732    0.094788191
   19.599198397    0.074587114    0.074583129    0.074588596
