#  E (eV)   dosup(E)     dosdw(E)   Int dos(E) EFermi =   12.843 eV
   5.000  0.8443E-02  0.3939E-02  0.6231E-03
   5.100  0.1230E-01  0.9867E-02  0.2404E-02
   5.200  0.1498E-01  0.1262E-01  0.4879E-02
   5.300  0.2143E-01  0.1640E-01  0.8081E-02
   5.400  0.2983E-01  0.2316E-01  0.1259E-01
   5.500  0.2526E-01  0.3172E-01  0.1858E-01
   5.600  0.2798E-01  0.2507E-01  0.2426E-01
   5.700  0.3120E-01  0.2768E-01  0.2985E-01
   5.800  0.3491E-01  0.3074E-01  0.3607E-01
   5.900  0.3910E-01  0.3423E-01  0.4301E-01
   6.000  0.4710E-01  0.3817E-01  0.5101E-01
   6.100  0.4608E-01  0.4449E-01  0.5993E-01
   6.200  0.4911E-01  0.4347E-01  0.6902E-01
   6.300  0.5201E-01  0.4590E-01  0.7854E-01
   6.400  0.5273E-01  0.4796E-01  0.8850E-01
   6.500  0.5499E-01  0.4835E-01  0.9867E-01
   6.600  0.5892E-01  0.4949E-01  0.1092E+00
   6.700  0.6321E-01  0.5240E-01  0.1204E+00
   6.800  0.6786E-01  0.5550E-01  0.1324E+00
   6.900  0.7287E-01  0.5881E-01  0.1451E+00
   7.000  0.8160E-01  0.6232E-01  0.1591E+00
   7.100  0.8389E-01  0.6826E-01  0.1739E+00
   7.200  0.8829E-01  0.6966E-01  0.1894E+00
   7.300  0.9661E-01  0.7001E-01  0.2056E+00
   7.400  0.1043E+00  0.7162E-01  0.2227E+00
   7.500  0.1106E+00  0.7500E-01  0.2408E+00
   7.600  0.1183E+00  0.7860E-01  0.2599E+00
   7.700  0.1291E+00  0.8185E-01  0.2803E+00
   7.800  0.1417E+00  0.8475E-01  0.3021E+00
   7.900  0.1574E+00  0.8762E-01  0.3256E+00
   8.000  0.2091E+00  0.9178E-01  0.3521E+00
   8.100  0.2683E+00  0.9644E-01  0.3851E+00
   8.200  0.3470E+00  0.1024E+00  0.4256E+00
   8.300  0.4934E+00  0.1086E+00  0.4782E+00
   8.400  0.6104E+00  0.1160E+00  0.5451E+00
   8.500  0.7066E+00  0.1208E+00  0.6237E+00
   8.600  0.7425E+00  0.1249E+00  0.7068E+00
   8.700  0.9326E+00  0.1308E+00  0.8022E+00
   8.800  0.1182E+01  0.1414E+00  0.9320E+00
   8.900  0.1091E+01  0.1509E+00  0.1066E+01
   9.000  0.7522E+00  0.1590E+00  0.1173E+01
   9.100  0.6345E+00  0.1678E+00  0.1258E+01
   9.200  0.5685E+00  0.1809E+00  0.1336E+01
   9.300  0.4020E+00  0.1963E+00  0.1403E+01
   9.400  0.3223E+00  0.2153E+00  0.1458E+01
   9.500  0.3559E+00  0.3044E+00  0.1515E+01
   9.600  0.1459E+01  0.3430E+00  0.1604E+01
   9.700  0.2141E+01  0.3373E+00  0.1866E+01
   9.800  0.1267E+01  0.3614E+00  0.2080E+01
   9.900  0.1077E+01  0.3700E+00  0.2229E+01
  10.000  0.8291E+00  0.3630E+00  0.2360E+01
  10.100  0.8371E+00  0.3727E+00  0.2478E+01
  10.200  0.1154E+01  0.3872E+00  0.2614E+01
  10.300  0.1206E+01  0.4160E+00  0.2769E+01
  10.400  0.1829E+01  0.5395E+00  0.2977E+01
  10.500  0.1896E+01  0.6690E+00  0.3236E+01
  10.600  0.9649E+00  0.6701E+00  0.3453E+01
  10.700  0.6934E+00  0.6075E+00  0.3602E+01
  10.800  0.5628E+00  0.4787E+00  0.3717E+01
  10.900  0.4544E+00  0.3656E+00  0.3810E+01
  11.000  0.4359E+00  0.2379E+00  0.3883E+01
  11.100  0.5067E+00  0.2268E+00  0.3952E+01
  11.200  0.5710E+00  0.2151E+00  0.4029E+01
  11.300  0.6191E+00  0.2040E+00  0.4108E+01
  11.400  0.1105E+01  0.7097E+00  0.4235E+01
  11.500  0.1422E+01  0.1196E+01  0.4460E+01
  11.600  0.1935E+01  0.1357E+01  0.4753E+01
  11.700  0.2071E+01  0.1515E+01  0.5101E+01
  11.800  0.2659E+01  0.1368E+01  0.5493E+01
  11.900  0.2480E+01  0.1213E+01  0.5884E+01
  12.000  0.1754E+01  0.1180E+01  0.6234E+01
  12.100  0.1196E+01  0.1030E+01  0.6494E+01
  12.200  0.1047E+01  0.1165E+01  0.6717E+01
  12.300  0.9427E+00  0.1365E+01  0.6944E+01
  12.400  0.8504E+00  0.1402E+01  0.7176E+01
  12.500  0.8076E+00  0.1255E+01  0.7394E+01
  12.600  0.8699E+00  0.1063E+01  0.7593E+01
  12.700  0.8841E+00  0.9103E+00  0.7782E+01
  12.800  0.8809E+00  0.4880E+00  0.7942E+01
  12.900  0.5377E+00  0.2904E+00  0.8061E+01
  13.000  0.1927E+00  0.2240E+00  0.8119E+01
  13.100  0.1449E+00  0.1748E+00  0.8154E+01
  13.200  0.1420E+00  0.1655E+00  0.8187E+01
  13.300  0.1396E+00  0.1607E+00  0.8217E+01
  13.400  0.1383E+00  0.1695E+00  0.8247E+01
  13.500  0.1402E+00  0.2163E+00  0.8280E+01
  13.600  0.1533E+00  0.2714E+00  0.8319E+01
  13.700  0.1653E+00  0.4010E+00  0.8370E+01
  13.800  0.1700E+00  0.4222E+00  0.8426E+01
  13.900  0.1698E+00  0.4875E+00  0.8491E+01
  14.000  0.1648E+00  0.6285E+00  0.8564E+01
  14.100  0.1532E+00  0.8688E+00  0.8655E+01
  14.200  0.1511E+00  0.9460E+00  0.8758E+01
  14.300  0.1506E+00  0.1156E+01  0.8876E+01
  14.400  0.1514E+00  0.1332E+01  0.9021E+01
  14.500  0.1524E+00  0.1429E+01  0.9172E+01
  14.600  0.1527E+00  0.1554E+01  0.9342E+01
  14.700  0.1526E+00  0.1308E+01  0.9504E+01
  14.800  0.1520E+00  0.9924E+00  0.9631E+01
  14.900  0.1509E+00  0.1334E+01  0.9759E+01
  15.000  0.1522E+00  0.1810E+01  0.9924E+01
  15.100  0.1478E+00  0.4360E+01  0.1024E+02
  15.200  0.1476E+00  0.1667E+01  0.1048E+02
  15.300  0.1456E+00  0.1192E+01  0.1063E+02
  15.400  0.1427E+00  0.1004E+01  0.1075E+02
  15.500  0.1482E+00  0.4705E+00  0.1084E+02
  15.600  0.1460E+00  0.2569E+00  0.1089E+02
  15.700  0.1387E+00  0.2310E+00  0.1093E+02
  15.800  0.1338E+00  0.2539E+00  0.1097E+02
  15.900  0.1346E+00  0.2616E+00  0.1101E+02
  16.000  0.1370E+00  0.2562E+00  0.1105E+02
  16.100  0.1347E+00  0.2435E+00  0.1108E+02
  16.200  0.1290E+00  0.2401E+00  0.1112E+02
  16.300  0.1237E+00  0.2350E+00  0.1116E+02
  16.400  0.1192E+00  0.2291E+00  0.1119E+02
  16.500  0.1191E+00  0.2150E+00  0.1123E+02
  16.600  0.1146E+00  0.2068E+00  0.1126E+02
  16.700  0.1137E+00  0.2009E+00  0.1129E+02
  16.800  0.1129E+00  0.1950E+00  0.1132E+02
  16.900  0.1121E+00  0.1900E+00  0.1135E+02
  17.000  0.1115E+00  0.1863E+00  0.1138E+02
  17.100  0.1112E+00  0.1868E+00  0.1141E+02
  17.200  0.1111E+00  0.1851E+00  0.1144E+02
  17.300  0.1112E+00  0.1810E+00  0.1147E+02
  17.400  0.1042E+00  0.1753E+00  0.1150E+02
  17.500  0.1016E+00  0.1706E+00  0.1153E+02
  17.600  0.9787E-01  0.1838E+00  0.1156E+02
  17.700  0.9301E-01  0.1628E+00  0.1158E+02
  17.800  0.8426E-01  0.1520E+00  0.1161E+02
  17.900  0.7920E-01  0.1441E+00  0.1163E+02
  18.000  0.7513E-01  0.1403E+00  0.1166E+02
  18.100  0.7101E-01  0.1383E+00  0.1168E+02
  18.200  0.6022E-01  0.1366E+00  0.1170E+02
  18.300  0.5695E-01  0.1353E+00  0.1172E+02
  18.400  0.5500E-01  0.1342E+00  0.1174E+02
  18.500  0.5270E-01  0.1335E+00  0.1175E+02
  18.600  0.4982E-01  0.1330E+00  0.1177E+02
  18.700  0.4637E-01  0.1316E+00  0.1179E+02
  18.800  0.4235E-01  0.1210E+00  0.1181E+02
  18.900  0.3934E-01  0.1158E+00  0.1182E+02
  19.000  0.3734E-01  0.1093E+00  0.1184E+02
  19.100  0.3535E-01  0.1210E+00  0.1186E+02
  19.200  0.3336E-01  0.9265E-01  0.1187E+02
  19.300  0.3137E-01  0.8345E-01  0.1188E+02
  19.400  0.2939E-01  0.7524E-01  0.1189E+02
  19.500  0.2742E-01  0.6768E-01  0.1190E+02
  19.600  0.2545E-01  0.6330E-01  0.1191E+02
  19.700  0.2348E-01  0.5968E-01  0.1192E+02
  19.800  0.2100E-01  0.5550E-01  0.1193E+02
  19.900  0.1824E-01  0.5075E-01  0.1193E+02
  20.000  0.2667E-01  0.4656E-01  0.1194E+02
